freq,psd_x,psd_y,psd_z,psd_xyz
0.0,2.255e+01,2.427e+01,4.167e+02,4.635e+02
1.6,3.463e+01,3.195e+01,2.588e+02,3.253e+02
3.2,2.390e+01,2.280e+01,4.633e+01,9.303e+01
4.8,2.553e+01,2.531e+01,4.231e+02,4.740e+02
6.4,2.949e+01,2.490e+01,1.305e+03,1.360e+03
8.0,3.021e+01,2.690e+01,1.981e+03,2.038e+03
9.6,2.833e+01,2.936e+01,2.555e+03,2.612e+03
11.2,2.713e+01,3.046e+01,3.524e+03,3.582e+03
12.8,2.862e+01,2.873e+01,4.622e+03,4.679e+03
14.4,2.502e+01,2.822e+01,5.816e+03,5.869e+03
16.0,2.449e+01,2.772e+01,7.513e+03,7.565e+03
17.6,2.227e+01,2.904e+01,9.980e+03,1.003e+04
19.2,2.947e+01,3.246e+01,1.247e+04,1.253e+04
20.8,2.963e+01,3.124e+01,1.470e+04,1.477e+04
22.4,2.443e+01,3.237e+01,1.741e+04,1.747e+04
24.0,2.461e+01,3.168e+01,2.063e+04,2.068e+04
25.6,3.122e+01,3.055e+01,2.446e+04,2.452e+04
27.2,4.342e+01,3.089e+01,2.894e+04,2.902e+04
28.8,6.221e+01,3.130e+01,3.297e+04,3.307e+04
30.4,6.735e+01,3.163e+01,3.802e+04,3.812e+04
32.0,7.684e+01,3.475e+01,4.564e+04,4.576e+04
33.6,1.148e+02,3.665e+01,5.439e+04,5.455e+04
35.2,1.830e+02,5.405e+01,6.463e+04,6.487e+04
36.8,2.841e+02,8.333e+01,7.732e+04,7.769e+04
38.4,4.603e+02,1.330e+02,9.244e+04,9.304e+04
40.0,7.473e+02,2.156e+02,1.125e+05,1.134e+05
41.6,1.136e+03,3.351e+02,1.394e+05,1.408e+05
43.2,1.837e+03,5.741e+02,1.759e+05,1.783e+05
44.7,3.624e+03,1.114e+03,2.273e+05,2.320e+05
46.3,7.011e+03,2.535e+03,2.999e+05,3.095e+05
47.9,1.131e+04,6.425e+03,4.142e+05,4.320e+05
49.5,1.724e+04,1.486e+04,5.946e+05,6.267e+05
51.1,2.669e+04,3.202e+04,8.637e+05,9.224e+05
52.7,3.942e+04,6.592e+04,1.317e+06,1.423e+06
54.3,5.868e+04,1.165e+05,1.777e+06,1.952e+06
55.9,7.186e+04,1.372e+05,1.605e+06,1.814e+06
57.5,5.621e+04,1.052e+05,1.169e+06,1.330e+06
59.1,3.413e+04,6.314e+04,8.047e+05,9.020e+05
60.7,1.692e+04,2.834e+04,5.126e+05,5.579e+05
62.3,7.118e+03,1.044e+04,3.319e+05,3.495e+05
63.9,4.853e+03,4.987e+03,2.098e+05,2.196e+05
65.5,5.683e+03,3.603e+03,1.324e+05,1.417e+05
67.1,6.818e+03,2.795e+03,9.686e+04,1.065e+05
68.7,6.628e+03,1.780e+03,7.445e+04,8.286e+04
70.3,5.305e+03,1.339e+03,5.722e+04,6.386e+04
71.9,3.429e+03,1.590e+03,4.655e+04,5.157e+04
73.5,1.592e+03,1.817e+03,3.581e+04,3.922e+04
75.1,6.517e+02,1.279e+03,2.125e+04,2.318e+04
76.7,7.276e+02,8.608e+02,1.383e+04,1.542e+04
78.3,2.463e+03,9.872e+02,1.397e+04,1.742e+04
79.9,5.702e+03,9.913e+02,1.534e+04,2.203e+04
81.5,6.363e+03,7.395e+02,1.338e+04,2.048e+04
83.1,4.111e+03,1.037e+03,9.980e+03,1.513e+04
84.7,2.092e+03,2.048e+03,7.027e+03,1.117e+04
86.3,1.744e+03,4.043e+03,5.285e+03,1.107e+04
87.9,2.319e+03,5.973e+03,4.946e+03,1.324e+04
89.5,3.209e+03,9.866e+03,4.699e+03,1.777e+04
91.1,4.274e+03,1.563e+04,4.360e+03,2.426e+04
92.7,4.283e+03,2.280e+04,4.540e+03,3.163e+04
94.3,5.159e+03,2.737e+04,5.747e+03,3.828e+04
95.9,6.607e+03,2.821e+04,6.813e+03,4.163e+04
97.5,8.019e+03,2.785e+04,7.680e+03,4.355e+04
99.1,1.315e+04,2.714e+04,1.062e+04,5.091e+04
100.7,1.995e+04,2.785e+04,1.419e+04,6.198e+04
102.3,2.375e+04,3.326e+04,1.804e+04,7.505e+04
103.9,2.294e+04,3.908e+04,2.180e+04,8.382e+04
105.5,1.901e+04,4.014e+04,2.049e+04,7.964e+04
107.1,1.749e+04,4.570e+04,1.755e+04,8.074e+04
108.7,2.065e+04,5.281e+04,1.762e+04,9.108e+04
110.3,2.324e+04,5.648e+04,1.922e+04,9.893e+04
111.9,2.188e+04,5.359e+04,1.903e+04,9.449e+04
113.5,2.226e+04,5.040e+04,1.888e+04,9.153e+04
115.1,2.592e+04,4.805e+04,1.958e+04,9.355e+04
116.7,2.999e+04,4.632e+04,2.106e+04,9.737e+04
118.3,3.333e+04,4.576e+04,2.336e+04,1.024e+05
119.9,3.574e+04,4.788e+04,2.566e+04,1.093e+05
121.5,3.777e+04,4.942e+04,2.804e+04,1.152e+05
123.1,3.986e+04,5.013e+04,3.153e+04,1.215e+05
124.7,4.214e+04,5.120e+04,3.644e+04,1.298e+05
126.3,4.356e+04,5.122e+04,4.142e+04,1.362e+05
127.9,4.527e+04,5.148e+04,4.719e+04,1.439e+05
129.5,4.754e+04,5.417e+04,5.202e+04,1.537e+05
131.0,4.349e+04,5.132e+04,4.387e+04,1.387e+05
132.6,3.020e+04,3.444e+04,2.965e+04,9.428e+04
134.2,1.129e+04,8.573e+03,1.082e+04,3.068e+04
135.8,9.452e+03,4.047e+03,9.448e+03,2.295e+04
137.4,1.082e+04,4.096e+03,1.144e+04,2.636e+04
139.0,1.200e+04,4.409e+03,1.349e+04,2.991e+04
140.6,1.359e+04,5.193e+03,1.672e+04,3.550e+04
142.2,1.570e+04,6.342e+03,2.115e+04,4.319e+04
143.8,1.889e+04,8.158e+03,2.745e+04,5.449e+04
145.4,2.185e+04,1.002e+04,3.366e+04,6.553e+04
147.0,2.317e+04,1.145e+04,3.730e+04,7.191e+04
148.6,2.416e+04,1.360e+04,4.078e+04,7.854e+04
150.2,2.521e+04,1.616e+04,4.463e+04,8.599e+04
151.8,2.726e+04,1.857e+04,4.990e+04,9.573e+04
153.4,3.346e+04,2.218e+04,6.298e+04,1.186e+05
155.0,4.306e+04,2.736e+04,8.373e+04,1.541e+05
156.6,5.073e+04,3.159e+04,1.044e+05,1.867e+05
158.2,5.925e+04,3.472e+04,1.299e+05,2.239e+05
159.8,6.869e+04,3.453e+04,1.596e+05,2.628e+05
161.4,7.382e+04,2.954e+04,1.787e+05,2.821e+05
163.0,7.073e+04,2.267e+04,1.785e+05,2.719e+05
164.6,5.970e+04,1.593e+04,1.542e+05,2.298e+05
166.2,4.291e+04,1.030e+04,1.121e+05,1.653e+05
167.8,3.272e+04,8.007e+03,8.586e+04,1.266e+05
169.4,3.172e+04,8.406e+03,8.026e+04,1.204e+05
171.0,3.060e+04,9.160e+03,7.553e+04,1.153e+05
172.6,2.882e+04,9.595e+03,6.992e+04,1.083e+05
174.2,2.714e+04,9.455e+03,6.649e+04,1.031e+05
175.8,2.440e+04,9.111e+03,6.043e+04,9.393e+04
177.4,2.073e+04,9.504e+03,5.437e+04,8.460e+04
179.0,1.672e+04,9.846e+03,4.634e+04,7.290e+04
180.6,1.482e+04,9.481e+03,4.229e+04,6.659e+04
182.2,1.351e+04,8.655e+03,3.877e+04,6.093e+04
183.8,1.313e+04,8.334e+03,3.759e+04,5.905e+04
185.4,1.282e+04,7.950e+03,3.686e+04,5.763e+04
187.0,1.209e+04,7.307e+03,3.524e+04,5.464e+04
188.6,1.136e+04,6.504e+03,3.362e+04,5.149e+04
190.2,1.093e+04,5.952e+03,3.274e+04,4.963e+04
191.8,1.041e+04,5.524e+03,3.144e+04,4.738e+04
193.4,1.088e+04,5.766e+03,3.285e+04,4.949e+04
195.0,1.206e+04,6.170e+03,3.647e+04,5.471e+04
196.6,1.168e+04,5.759e+03,3.591e+04,5.336e+04
198.2,1.073e+04,5.229e+03,3.366e+04,4.962e+04
199.8,1.005e+04,4.772e+03,3.203e+04,4.686e+04
