freq,psd_x,psd_y,psd_z,psd_xyz
0.0,1.855e+01,4.103e+02,3.913e+00,4.328e+02
1.5,2.054e+01,2.443e+02,1.954e+01,2.844e+02
3.0,1.397e+01,2.494e+01,2.055e+01,5.946e+01
4.6,1.395e+01,3.117e+02,2.048e+01,3.461e+02
6.1,1.395e+01,1.234e+03,2.181e+01,1.269e+03
7.6,1.443e+01,1.891e+03,2.215e+01,1.928e+03
9.1,1.478e+01,2.129e+03,2.155e+01,2.165e+03
10.7,1.467e+01,2.927e+03,2.129e+01,2.963e+03
12.2,1.475e+01,4.387e+03,2.492e+01,4.427e+03
13.7,1.533e+01,6.183e+03,2.720e+01,6.226e+03
15.2,1.401e+01,8.147e+03,2.913e+01,8.191e+03
16.8,1.548e+01,1.028e+04,2.528e+01,1.032e+04
18.3,1.670e+01,1.297e+04,2.504e+01,1.301e+04
19.8,1.906e+01,1.577e+04,2.715e+01,1.582e+04
21.3,2.211e+01,1.965e+04,2.491e+01,1.970e+04
22.8,2.700e+01,2.500e+04,2.522e+01,2.505e+04
24.4,4.153e+01,3.204e+04,2.785e+01,3.211e+04
25.9,6.252e+01,4.222e+04,2.761e+01,4.231e+04
27.4,1.100e+02,5.723e+04,3.345e+01,5.737e+04
28.9,1.869e+02,6.780e+04,3.340e+01,6.802e+04
30.5,2.837e+02,8.418e+04,3.258e+01,8.449e+04
32.0,4.166e+02,1.130e+05,2.973e+01,1.134e+05
33.5,6.526e+02,1.580e+05,2.802e+01,1.587e+05
35.0,1.328e+03,2.322e+05,2.743e+01,2.335e+05
36.6,2.497e+03,3.509e+05,2.800e+01,3.534e+05
38.1,3.752e+03,5.909e+05,5.087e+01,5.947e+05
39.6,5.034e+03,9.804e+05,1.013e+02,9.855e+05
41.1,6.266e+03,1.251e+06,1.386e+02,1.257e+06
42.6,6.476e+03,1.116e+06,1.309e+02,1.123e+06
44.2,5.714e+03,7.889e+05,8.367e+01,7.947e+05
45.7,5.026e+03,5.267e+05,5.879e+01,5.318e+05
47.2,4.668e+03,3.589e+05,5.299e+01,3.636e+05
48.7,4.366e+03,2.499e+05,4.815e+01,2.543e+05
50.3,4.065e+03,1.766e+05,4.735e+01,1.807e+05
51.8,4.165e+03,1.335e+05,5.007e+01,1.377e+05
53.3,4.578e+03,1.074e+05,5.054e+01,1.120e+05
54.8,5.027e+03,8.713e+04,5.536e+01,9.221e+04
56.4,5.622e+03,6.937e+04,5.821e+01,7.505e+04
57.9,6.290e+03,5.352e+04,5.904e+01,5.987e+04
59.4,7.057e+03,4.386e+04,7.212e+01,5.098e+04
60.9,8.335e+03,3.686e+04,9.621e+01,4.529e+04
62.4,1.035e+04,3.020e+04,1.236e+02,4.067e+04
64.0,1.327e+04,2.466e+04,1.416e+02,3.807e+04
65.5,1.782e+04,1.888e+04,1.614e+02,3.687e+04
67.0,2.361e+04,1.396e+04,2.360e+02,3.781e+04
68.5,3.013e+04,1.139e+04,2.999e+02,4.183e+04
70.1,3.203e+04,1.162e+04,3.081e+02,4.396e+04
71.6,2.742e+04,1.162e+04,3.049e+02,3.934e+04
73.1,2.577e+04,1.068e+04,3.663e+02,3.681e+04
74.6,2.983e+04,1.012e+04,4.563e+02,4.041e+04
76.1,4.153e+04,1.254e+04,5.382e+02,5.461e+04
77.7,5.678e+04,2.023e+04,6.859e+02,7.769e+04
79.2,6.862e+04,3.144e+04,7.534e+02,1.008e+05
80.7,7.938e+04,4.708e+04,8.151e+02,1.273e+05
82.2,8.074e+04,6.141e+04,8.471e+02,1.430e+05
83.8,6.902e+04,6.513e+04,6.624e+02,1.348e+05
85.3,5.497e+04,6.170e+04,4.978e+02,1.172e+05
86.8,5.164e+04,6.614e+04,6.040e+02,1.184e+05
88.3,4.891e+04,6.991e+04,6.808e+02,1.195e+05
89.9,4.361e+04,6.844e+04,5.795e+02,1.126e+05
91.4,3.834e+04,6.379e+04,6.053e+02,1.027e+05
92.9,3.550e+04,6.057e+04,7.042e+02,9.677e+04
94.4,3.351e+04,5.734e+04,7.266e+02,9.158e+04
95.9,3.154e+04,5.369e+04,5.553e+02,8.578e+04
97.5,2.952e+04,4.778e+04,4.026e+02,7.770e+04
99.0,2.690e+04,3.910e+04,3.199e+02,6.632e+04
100.5,2.367e+04,3.145e+04,3.308e+02,5.545e+04
102.0,1.914e+04,2.716e+04,3.832e+02,4.668e+04
103.6,1.295e+04,2.776e+04,2.119e+02,4.092e+04
105.1,8.441e+03,3.257e+04,1.400e+02,4.115e+04
106.6,7.123e+03,3.414e+04,1.617e+02,4.143e+04
108.1,5.789e+03,3.293e+04,2.535e+02,3.897e+04
109.7,4.394e+03,3.204e+04,2.432e+02,3.668e+04
111.2,2.950e+03,3.315e+04,2.706e+02,3.637e+04
112.7,1.723e+03,3.687e+04,2.267e+02,3.882e+04
114.2,6.672e+02,4.715e+04,1.838e+02,4.800e+04
115.7,4.148e+02,5.900e+04,2.056e+02,5.962e+04
117.3,1.096e+03,6.218e+04,1.844e+02,6.347e+04
118.8,3.716e+03,6.417e+04,3.012e+02,6.819e+04
120.3,8.336e+03,5.642e+04,5.882e+02,6.534e+04
121.8,1.169e+04,4.923e+04,8.531e+02,6.177e+04
123.4,1.280e+04,5.174e+04,9.602e+02,6.550e+04
124.9,1.269e+04,5.567e+04,1.027e+03,6.939e+04
126.4,1.016e+04,6.017e+04,1.464e+03,7.179e+04
127.9,7.210e+03,6.906e+04,1.883e+03,7.816e+04
129.5,5.481e+03,7.639e+04,1.820e+03,8.369e+04
131.0,4.490e+03,8.875e+04,1.608e+03,9.485e+04
132.5,2.560e+03,6.476e+04,9.944e+02,6.832e+04
134.0,3.808e+02,9.712e+03,1.815e+02,1.027e+04
135.5,7.752e+01,8.964e+02,5.002e+01,1.024e+03
137.1,9.059e+01,9.812e+02,4.923e+01,1.121e+03
138.6,9.010e+01,9.854e+02,6.493e+01,1.140e+03
140.1,9.567e+01,9.926e+02,6.715e+01,1.155e+03
141.6,9.269e+01,9.723e+02,6.107e+01,1.126e+03
143.2,8.122e+01,9.508e+02,6.649e+01,1.098e+03
144.7,8.204e+01,9.273e+02,6.498e+01,1.074e+03
146.2,7.744e+01,9.265e+02,6.285e+01,1.067e+03
147.7,7.496e+01,9.802e+02,6.236e+01,1.118e+03
149.3,7.858e+01,1.115e+03,5.671e+01,1.250e+03
150.8,7.966e+01,1.178e+03,5.304e+01,1.311e+03
152.3,7.426e+01,1.101e+03,5.607e+01,1.231e+03
153.8,7.312e+01,1.029e+03,5.862e+01,1.161e+03
155.3,7.053e+01,9.553e+02,6.183e+01,1.088e+03
156.9,7.174e+01,9.405e+02,5.904e+01,1.071e+03
158.4,7.887e+01,9.661e+02,6.561e+01,1.111e+03
159.9,9.394e+01,1.014e+03,1.118e+02,1.220e+03
161.4,1.317e+02,1.090e+03,3.014e+02,1.523e+03
163.0,1.649e+02,1.118e+03,5.077e+02,1.790e+03
164.5,1.557e+02,1.070e+03,5.936e+02,1.819e+03
166.0,1.575e+02,1.045e+03,6.318e+02,1.834e+03
167.5,1.695e+02,1.055e+03,5.887e+02,1.813e+03
169.1,1.685e+02,1.079e+03,5.084e+02,1.756e+03
170.6,1.699e+02,1.199e+03,4.208e+02,1.790e+03
172.1,2.027e+02,1.606e+03,3.172e+02,2.126e+03
173.6,2.210e+02,1.808e+03,2.129e+02,2.242e+03
175.1,2.114e+02,1.741e+03,1.522e+02,2.104e+03
176.7,2.106e+02,1.612e+03,1.414e+02,1.964e+03
178.2,2.188e+02,1.483e+03,1.539e+02,1.855e+03
179.7,2.312e+02,1.472e+03,1.905e+02,1.894e+03
181.2,2.473e+02,1.520e+03,2.442e+02,2.011e+03
182.8,2.428e+02,1.520e+03,2.892e+02,2.052e+03
184.3,2.481e+02,1.478e+03,3.267e+02,2.053e+03
185.8,2.562e+02,1.489e+03,3.875e+02,2.132e+03
187.3,2.246e+02,1.590e+03,4.834e+02,2.298e+03
188.9,2.301e+02,1.741e+03,6.778e+02,2.649e+03
190.4,2.363e+02,1.880e+03,8.960e+02,3.012e+03
191.9,2.267e+02,1.983e+03,9.875e+02,3.197e+03
193.4,2.554e+02,2.152e+03,1.052e+03,3.460e+03
194.9,2.924e+02,2.152e+03,1.100e+03,3.545e+03
196.5,3.253e+02,1.873e+03,1.051e+03,3.249e+03
198.0,3.564e+02,1.708e+03,9.801e+02,3.044e+03
199.5,3.512e+02,1.800e+03,9.115e+02,3.063e+03
